## List of spectral regions containing absorption telluric features
## By Eder Martioli - LNA Jan 23, 2015
## Modified by Lison Malo (remove 3 last regions) -CFHT Jul 16, 2015
## Modified by L. Malo & C. Moutou (selection similar lines compared to LE -CFHT Aug26,2015
## Modified by L. Malo (adding red part of the spectrum) -CFHT Feb17,2016
##530.000 534.900
535.000 537.900
538.000 540.000
541.300 541.500
545.500 545.800
568.700 568.750
569.100 569.500
570.000 570.100
579.700 579.900
587.580 587.700
587.900 588.200
588.350 588.600
588.700 588.890
589.140 589.400
589.800 590.100
590.130 590.360
590.750 591.020
591.800 592.100
592.350 592.900
594.230 594.500
594.550 594.920
627.600 628.400
628.700 629.000
629.200 629.350
629.500 630.400
630.500 631.100
631.300 632.000
632.300 632.500
647.400 647.650
647.900 648.100
648.250 648.400
649.000 649.150
649.500 649.550
686.650 688.050
688.300 688.450
688.800 688.999
689.100 689.500
689.600 689.800
690.200 690.700
691.300 691.420
691.800 691.910
692.400 692.420
692.660 692.680
692.860 693.190
693.350 693.530
695.500 695.950
698.600 698.700
701.120 701.150
703.970 703.990
716.700 716.800
717.200 717.500
717.650 718.000
718.100 718.200
718.350 718.500
718.550 718.800
719.050 718.200
720.600 720.700
722.300 722.400
723.150 723.350
730.000 760.000
760.100 800.000
800.100 830.000
830.100 855.000

#695.500 696.250
#716.700 716.900
##644.650 654.000
##691.500 705.500
##716.000 742.500
##810.000 844.000
## 910.000 920.000
## 930.000 950.000
## 965.000 986.000
